!#Experiment  Id= 2.1:
!Initial Temp=850 C
!Cylinder(50,150)
!Quenchant=Aquatensid BW (5%)
!t	TC_1	TC_2	TC_3	TC_4
0	845.601739	851.040606	850.366884	845.888306
0.5	845.469228	850.992315	850.4085	845.930796
1	845.301586	850.943565	850.365045	845.977421
1.5	845.054039	850.883318	850.385278	845.997862
2	844.822351	850.819392	850.425514	846.071361
2.5	844.496309	850.715228	850.376541	846.072509
3	844.147334	850.637739	850.376771	846.124648
3.5	843.690727	850.484145	850.383438	846.173801
4	843.181608	850.366884	850.395164	846.235818
4.5	842.538755	850.138119	850.429883	846.232143
5	841.853552	849.897642	850.352399	846.298295
5.5	840.905099	849.627755	850.427124	846.320346
6	839.797007	849.300188	850.382978	846.305186
6.5	838.60277	848.912659	850.404131	846.320575
7	837.243155	848.410258	850.375391	846.322413
7.5	835.842508	847.79946	850.395854	846.282216
8	834.421025	847.068366	850.409649	846.254882
8.5	832.97117	846.139175	850.401602	846.130619
9	831.490684	845.104099	850.368953	846.01371
9.5	830.011632	843.940489	850.373552	845.909666
10	828.612238	842.774448	850.40919	845.715135
10.5	827.249435	841.581429	850.417007	845.486855
11	825.802493	840.446321	850.411719	845.187628
11.5	824.460701	839.347294	850.373092	844.807598
12	823.024989	838.227233	850.31998	844.32819
12.5	821.684074	837.033899	850.298598	843.735204
13	820.367779	835.988922	850.247557	842.977966
13.5	819.082701	834.929313	850.258133	841.986121
14	817.774967	833.812946	850.138579	840.760981
14.5	816.463984	832.840202	850.104323	839.294036
15	813.441383	831.871573	849.978796	837.938324
15.5	806.345046	830.966561	849.9027	836.494593
16	794.974435	830.058996	849.781087	835.140928
16.5	776.038483	829.138358	849.589365	833.802125
17	746.679877	828.162115	849.406156	832.449553
17.5	705.527242	825.224449	849.190546	831.133347
18	661.341861	819.328046	849.001838	829.834024
18.5	610.355219	812.618444	848.794293	828.599373
19	559.481138	806.526857	848.618933	827.349075
19.5	513.486821	800.067142	848.375556	826.134351
20	474.53192	794.353327	848.118406	824.74035
20.5	441.898961	789.107065	847.848633	822.590476
21	414.732119	783.199352	847.522126	817.340077
21.5	391.468365	778.150663	847.219767	811.384388
22	371.12633	772.767214	846.865282	805.256104
22.5	353.675391	767.279994	846.490153	798.118948
23	339.244783	761.778097	846.022954	791.28285
23.5	325.251628	757.016163	845.496557	784.940841
24	310.908173	752.611238	844.905013	778.606175
24.5	297.788175	748.011592	844.266258	772.318286
25	285.158063	742.652272	843.438685	766.312994
25.5	274.263949	737.799696	842.609668	760.128626
26	264.634619	734.597004	841.665175	754.39234
26.5	256.139673	731.240753	840.648177	748.625095
27	248.982589	728.180482	839.541071	742.918252
27.5	242.577133	725.649378	838.328336	737.352638
28	236.068807	723.139271	837.010751	730.598774
28.5	229.456723	720.215667	835.651422	721.622257
29	223.173268	716.418199	834.188776	710.521035
29.5	217.136226	713.320733	832.650167	699.928182
30	211.401681	710.001987	831.053986	689.915773
30.5	206.414127	707.271236	829.375133	679.993001
31	202.279654	705.087221	827.63726	671.320528
31.5	197.378179	700.892589	825.800207	662.63986
32	192.656639	696.84473	823.910485	653.292554
32.5	188.779637	694.690062	821.90125	644.637119
33	184.962524	692.428833	819.804854	636.031485
33.5	181.550577	687.832998	817.653136	628.812766
34	178.999615	679.715087	815.319171	621.456121
34.5	175.87107	655.635648	812.875268	612.733315
35	172.28529	612.281499	810.257842	602.149999
35.5	167.934609	572.887136	807.467209	588.682653
36	164.116387	539.272349	804.507797	572.165198
36.5	160.712848	490.129053	801.316311	552.678239
37	157.745092	444.079059	797.917334	530.168431
37.5	154.763788	405.17002	794.260521	507.313033
38	151.831535	375.584147	790.293464	482.156496
38.5	148.884628	352.836212	786.103745	455.774348
39	145.989648	333.309368	781.582934	427.662868
39.5	143.381388	316.746089	776.790797	400.453708
40	141.261703	302.561506	771.678304	378.95114
40.5	139.181736	290.401785	766.280807	362.340225
41	136.827187	279.916444	760.599303	349.344178
41.5	134.772404	270.612423	754.660012	338.543505
42	132.690989	262.182858	748.42414	328.89118
42.5	130.77438	254.603155	741.977832	320.10265
43	128.79597	247.802609	735.32435	311.902769
43.5	126.955111	241.61436	728.427807	304.158005
44	125.334531	235.958469	721.351892	296.676138
44.5	123.727561	230.862283	714.0433	289.759585
45	121.96981	226.234672	706.547207	282.935197
45.5	119.895989	222.003984	698.922276	276.139273
46	118.157628	218.018238	691.157309	269.600866
46.5	116.772571	214.294805	683.282803	263.461826
47	115.185628	210.819125	675.342967	257.680592
47.5	113.485583	207.545721	667.28182	252.040271
48	111.979597	204.443259	659.193262	246.629544
48.5	110.421907	201.501634	651.065276	241.499388
49	108.85064	198.681993	642.930316	236.801602
49.5	107.526689	196.089062	634.794022	232.401066
50	106.586433	193.594172	626.670299	228.083643
50.5	105.287802	191.270026	618.575581	223.957955
51	104.008784	189.040409	610.514576	220.086634
51.5	102.786983	186.849308	602.52698	216.390081
52	101.414252	184.714325	594.546848	212.833256
52.5	100.098969	182.745099	586.58166	209.446897
53	98.883995	180.863165	578.6432	206.373609
53.5	97.810534	179.114244	570.854859	203.530539
54	96.87252	177.290325	563.188019	200.825644
54.5	96.038749	175.557109	555.635321	198.246036
55	94.985709	173.898307	548.20146	195.666478
55.5	93.938957	172.185188	540.865826	193.107184
56	92.817412	170.540268	533.628592	190.541314
56.5	91.811923	169.102673	526.500239	188.062036
57	90.923019	167.677352	519.485617	185.887213
57.5	90.228645	166.206662	512.606489	183.848262
58	89.349628	164.799234	505.801714	181.855319
58.5	88.322656	163.74294	499.125514	179.910565
59	87.310336	162.532687	492.563542	177.93416
59.5	86.275888	161.183509	486.077826	175.768298
60	85.27912	159.710215	479.698095	173.68915
60.5	84.387848	157.993071	473.414425	171.596891
61	83.629763	156.776568	467.234824	169.596119
61.5	82.829696	155.757366	461.102759	167.734513
62	82.12713	154.575866	455.087298	165.852959
62.5	81.391291	153.453704	449.175657	164.123534
63	80.61569	151.925281	443.382944	162.587686
63.5	79.90261	150.423684	437.715317	161.193901
64	79.060012	149.177562	432.144385	159.843159
64.5	78.198683	147.523093	426.631951	158.073049
65	77.43989	146.554954	421.207758	156.307902
65.5	76.787188	145.608702	415.870993	155.077503
66	76.136739	144.409501	410.558453	153.916216
66.5	75.337729	143.304824	405.295624	152.541486
67	74.598014	142.335796	400.163752	151.136477
67.5	74.080701	140.938272	395.093004	149.649929
68	73.617528	139.633328	390.122709	148.46084
68.5	73.067302	138.545264	385.296762	147.039261
69	72.572106	137.44217	380.576443	145.468289
69.5	72.04713	136.599406	375.95168	144.030389
70	71.613661	136.062814	371.450903	142.474967
70.5	71.258054	135.02867	367.014349	141.258651
71	70.696532	134.112155	362.638642	140.024642
71.5	70.102963	133.355776	358.322366	138.935442
72	69.51248	132.083533	354.073177	137.507187
72.5	68.893513	130.726726	349.894056	136.27255
73	68.167905	129.231306	345.763948	135.019198
73.5	67.480041	128.065159	341.652598	133.431894
74	66.888382	127.238388	337.662352	131.907401
74.5	66.317027	125.82178	333.724918	130.683827
75	65.824672	124.141317	329.814171	129.528172
75.5	65.286325	122.851312	325.957669	128.163701
76	64.748796	121.485701	322.180367	127.042845
76.5	64.32481	120.293335	318.465281	126.041293
77	63.977873	119.395623	314.796045	125.130067
77.5	63.648383	118.135339	311.184453	124.00432
78	63.17852	116.752572	307.605144	122.566644
78.5	62.751411	115.618224	304.052857	121.083237
79	62.27894	114.729986	300.494698	119.953081
79.5	61.883323	113.989228	297.07185	118.977037
80	61.667773	113.043312	293.725163	117.856912
80.5	61.530942	111.919766	290.560159	116.689338
81	61.35193	111.199902	287.343653	115.523919
81.5	61.013614	110.780853	284.104692	114.654115
82	60.653038	110.155633	280.925587	114.039771
82.5	60.285902	109.255436	277.787427	113.497096
83	60.018595	108.613326	274.709301	112.964113
83.5	59.697606	107.822878	271.675009	112.225463
84	59.37635	106.824164	268.71054	111.339853
84.5	59.006771	105.812207	265.776747	110.332409
85	58.651729	104.884546	262.863679	109.357441
85.5	58.289443	104.086187	259.993498	108.397927
86	57.883286	102.878547	257.170452	107.310061
86.5	57.610299	101.920718	254.385333	106.227577
87	57.371435	100.965593	251.647203	105.11975
87.5	57.10265	100.151223	248.906982	103.947123
88	56.784603	99.609384	246.224323	102.926079
88.5	56.456162	98.835824	243.58866	102.159175
89	56.152401	98.095165	240.987546	101.243375
89.5	55.775949	97.515817	238.437935	100.413128
90	55.407295	97.007238	235.88268	99.425369
90.5	55.077716	96.170271	233.380625	98.454492
91	54.856314	95.372482	230.935219	97.660415
91.5	54.692494	94.363986	228.496558	96.761143
92	54.444937	93.3386	226.058488	95.637428
92.5	54.192842	92.583237	223.672002	94.434027
93	53.994967	92.07297	221.316231	93.585813
93.5	53.736953	91.510056	219.038146	92.972512
94	53.50142	90.844936	216.728994	92.365189
94.5	53.249863	90.172114	214.4807	91.88257
95	53.011333	89.592516	212.266994	91.444469
95.5	52.782906	88.998	210.097317	90.872254
96	52.60199	88.56076	207.971129	90.332903
96.5	52.425785	87.909264	205.842764	89.9861
97	52.198855	87.170032	203.771165	89.644495
97.5	51.920499	86.426466	201.745315	88.923049
98	51.77285	85.787892	199.744154	88.057612
98.5	51.732047	85.17697	197.757074	87.381555
99	51.640743	84.510811	195.800936	86.894764
99.5	51.45902	84.191877	193.871178	86.539124
100	51.264875	83.693138	191.953446	86.110696
100.5	51.031687	83.236768	190.090697	85.623616
101	50.843803	82.731404	188.22243	85.064238
101.5	50.654317	82.138548	186.385536	84.443114
102	50.414267	81.632831	184.523225	83.828344
102.5	50.267375	81.153789	182.678683	83.128784
103	50.143939	80.761851	180.866893	82.588502
103.5	49.970614	80.542947	179.083257	82.059912
104	49.771762	80.127763	177.305699	81.579945
104.5	49.702688	79.523264	175.564795	80.896991
105	49.570626	78.925516	173.804235	80.21119
105.5	49.362462	78.396723	172.057386	79.494115
106	49.150881	77.996618	170.364795	78.875557
106.5	48.957337	77.60458	168.678081	78.332444
107	48.804652	77.148555	166.989156	77.753775
107.5	48.671377	76.509285	165.347595	77.294838
108	48.545094	75.962437	163.716682	76.726047
108.5	48.393719	75.438193	162.107138	76.156373
109	48.221313	74.92178	160.521537	75.584245
109.5	48.046626	74.351888	158.95386	75.053289
110	47.900848	73.977774	157.416417	74.533071
110.5	47.721599	73.562036	155.923113	73.942142
111	47.559057	72.939532	154.406493	73.378499
111.5	47.409836	72.454626	152.941197	72.90099
112	47.281175	72.122096	151.463066	72.53759
112.5	47.157705	71.687734	150.02628	72.234824
113	47.004368	71.152422	148.609761	71.802929
113.5	46.874086	70.60835	147.194327	71.272322
114	46.769806	70.22853	145.829181	70.775481
114.5	46.66054	69.830783	144.449187	70.400593
115	46.557827	69.518972	143.081375	69.919367
115.5	46.481353	69.195953	141.73335	69.524736
116	46.366633	68.811352	140.428352	69.310959
116.5	46.269328	68.354857	139.100728	69.119785
117	46.142595	68.012517	137.810105	68.894129
117.5	46.049121	67.731956	136.535512	68.580031
118	45.940475	67.527962	135.270042	68.320546
118.5	45.891582	67.334261	134.029755	68.144564
119	45.822086	67.084789	132.794201	67.925585
119.5	45.721571	66.799022	131.600283	67.667859
120	45.570105	66.353985	130.430748	67.28494
120.5	45.464816	65.87037	129.20315	66.879369
121	45.366991	65.277139	128.051434	66.396487
121.5	45.301996	64.914388	126.911903	65.902797
122	45.196911	64.639219	125.784769	65.49866
122.5	45.122395	64.328844	124.658595	65.157888
123	45.031339	64.006113	123.575594	64.840165
123.5	44.927591	63.798787	122.470245	64.507846
124	44.847396	63.543477	121.39751	64.175047
124.5	44.792117	63.126956	120.337061	63.891526
125	44.671129	62.673157	119.299117	63.488053
125.5	44.600661	62.236331	118.270902	63.021977
126	44.481921	61.775438	117.24512	62.604488
126.5	44.356824	61.411154	116.227676	62.220578
127	44.244861	61.177842	115.252157	61.857923
127.5	44.152608	60.936657	114.261983	61.486696
128	44.048334	60.728882	113.314332	61.13359
128.5	43.944051	60.500221	112.364247	60.833389
129	43.879664	60.383077	111.422605	60.595986
129.5	43.811645	60.226428	110.499126	60.403444
130	43.753826	60.08144	109.574086	60.189341
130.5	43.700086	59.846882	108.688205	59.953447
131	43.656548	59.561117	107.810215	59.692388
131.5	43.59532	59.223676	106.937391	59.367538
132	43.541573	58.891349	106.052777	59.138298
132.5	43.534996	58.566834	105.181674	58.953496
133	43.457206	58.266531	104.356333	58.80506
133.5	43.376689	57.909796	103.51916	58.619782
134	43.303199	57.689166	102.712337	58.427526
134.5	43.224486	57.412783	101.87676	58.178645
135	43.149172	57.077928	101.080734	57.898508
135.5	43.076121	56.793369	100.292222	57.611592
136	43.014411	56.566548	99.493873	57.290253
136.5	42.974705	56.426935	98.709775	57.003477
137	42.91367	56.181408	97.949357	56.734194
137.5	42.877365	55.902116	97.192796	56.524677
138	42.820864	55.610413	96.421869	56.341893
138.5	42.737808	55.414044	95.693229	56.067572
139	42.698775	55.306516	94.977619	55.855283
139.5	42.659513	55.163885	94.230764	55.706622
140	42.594604	54.899066	93.523207	55.586065
140.5	42.527875	54.646361	92.841213	55.387444
141	42.431407	54.466993	92.110008	55.24167
141.5	42.370571	54.291658	91.462478	55.066861
142	42.298609	54.109103	90.800959	54.812379
142.5	42.249118	53.971554	90.10751	54.618625
143	42.190316	53.833094	89.462884	54.382536
143.5	42.100406	53.631125	88.810316	54.14619
144	42.03206	53.431834	88.185675	53.898555
144.5	41.962802	53.236799	87.52618	53.678805
145	41.90762	53.030254	86.935607	53.41669
145.5	41.830178	52.81332	86.303897	53.189671
146	41.765224	52.578332	85.707237	53.066689
146.5	41.711622	52.291479	85.081542	52.934462
147	41.640074	52.072643	84.502971	52.794791
147.5	41.591237	51.938757	83.910364	52.619959
148	41.545579	51.808693	83.34022	52.460206
148.5	41.518092	51.674559	82.780662	52.359704
149	41.465615	51.546277	82.209965	52.216828
149.5	41.423132	51.442335	81.667081	52.0079
150	41.397687	51.296219	81.104096	51.832532
150.5	41.349976	51.166552	80.555929	51.693215
151	41.281814	50.976655	80.024585	51.539006
151.5	41.255002	50.807487	79.521473	51.380948
152	41.198878	50.571973	78.989966	51.217011
152.5	41.137524	50.339807	78.493394	51.077189
153	41.085031	50.192457	77.967528	50.949985
153.5	41.030716	49.999954	77.469203	50.820965
154	41.011399	49.807201	76.971115	50.652682
154.5	40.93549	49.623001	76.496979	50.497014
155	40.901624	49.482578	76.032695	50.362992
155.5	40.846392	49.331754	75.514491	50.207746
156	40.817752	49.25024	75.053344	50.097394
156.5	40.774791	49.151559	74.576758	49.978683
157	40.725691	48.982181	74.146931	49.785024
157.5	40.668177	48.854344	73.688459	49.604208
158	40.615662	48.724689	73.253248	49.43398
158.5	40.590881	48.548483	72.799902	49.324699
159	40.544956	48.388975	72.359522	49.249281
159.5	40.520401	48.271026	71.927184	49.133888
160	40.471745	48.169339	71.514298	49.036328
160.5	40.450826	48.108549	71.077449	48.900365
161	40.432409	47.925711	70.684446	48.798271
161.5	40.405578	47.808175	70.267027	48.677421
162	40.393981	47.713913	69.880699	48.547523
162.5	40.365557	47.605177	69.46592	48.439529
163	40.323034	47.471335	69.073053	48.321812
163.5	40.307344	47.338384	68.67434	48.209507
164	40.256859	47.22012	68.293287	48.070752
164.5	40.211603	47.129662	67.908848	47.991651
165	40.183174	47.019521	67.538711	47.908703
165.5	40.132229	46.893086	67.169217	47.80405
166	40.131774	46.773877	66.814699	47.709788
166.5	40.081509	46.685199	66.441339	47.613033
167	40.034654	46.499454	66.095945	47.520793
167.5	39.984385	46.439267	65.73484	47.410006
168	39.954814	46.312551	65.398571	47.265291
168.5	39.933203	46.229725	65.047931	47.18456
169	39.880655	46.113173	64.721907	47.070353
169.5	39.882475	46.011775	64.393835	46.952291
170	39.843801	45.918971	64.03906	46.878554
170.5	39.795116	45.77432	63.721456	46.793276
171	39.766677	45.661802	63.39463	46.669081
171.5	39.722084	45.56603	63.06194	46.554604
172	39.699332	45.462325	62.757465	46.441022
172.5	39.668616	45.360876	62.437486	46.278324
173	39.634713	45.242434	62.157839	46.159966
173.5	39.620833	45.134853	61.842278	46.033222
174	39.590115	45.04561	61.538569	45.921858
174.5	39.537323	44.970632	61.242229	45.81705
175	39.503417	44.87662	60.969414	45.715629
175.5	39.488625	44.756094	60.683107	45.659935
176	39.455627	44.659574	60.367593	45.53518
176.5	39.436283	44.534947	60.096703	45.422415
177	39.39896	44.432745	59.837006	45.293108
177.5	39.39327	44.313536	59.526095	45.175339
178	39.367553	44.2673	59.283175	45.060277
178.5	39.382346	44.228768	59.033941	44.987565
179	39.339559	44.197489	58.759752	44.939088
179.5	39.338193	44.119967	58.497209	44.871127
180	39.316799	44.018637	58.24025	44.843262
180.5	39.294949	43.956067	57.978317	44.763061
181	39.286755	43.898255	57.726688	44.684215
181.5	39.269229	43.837039	57.455703	44.622358
182	39.274465	43.765843	57.230754	44.601058
182.5	39.252841	43.691242	56.987125	44.510645
183	39.2253	43.620492	56.73987	44.418865
183.5	39.19275	43.555407	56.512143	44.319372
184	39.198668	43.472175	56.270673	44.211032
184.5	39.181368	43.393247	56.032322	44.139632
185	39.164979	43.323159	55.795291	44.085682
185.5	39.135614	43.240138	55.601191	44.005206
186	39.108525	43.216547	55.364555	43.952157
186.5	39.112395	43.149625	55.135537	43.872126
187	39.091452	43.132838	54.936418	43.849453
187.5	39.052523	43.040956	54.700371	43.79413
188	39.051157	42.964722	54.485448	43.723385
188.5	39.04023	42.875777	54.280629	43.670551
189	39.024066	42.781379	54.072184	43.636083
189.5	39.003349	42.727596	53.876097	43.559206
190	38.99743	42.668364	53.667828	43.508406
190.5	38.97011	42.605044	53.467866	43.460325
191	38.960547	42.528102	53.283195	43.391149
191.5	38.962141	42.505858	53.083864	43.334898
192	38.962824	42.413701	52.893744	43.297018
192.5	38.955538	42.36762	52.706757	43.261859
193	38.938235	42.317678	52.528761	43.213315
193.5	38.929128	42.254566	52.323028	43.147981
194	38.92207	42.221647	52.135299	43.087182
194.5	38.891333	42.178964	51.973244	43.021842
195	38.883136	42.096091	51.787277	42.959447
195.5	38.884274	42.034785	51.602867	42.876402
196	38.906132	41.990505	51.443012	42.804696
196.5	38.885185	41.902396	51.269159	42.769296
197	38.849665	41.878778	51.088296	42.724817
197.5	38.871296	41.817687	50.945529	42.667854
198	38.859228	41.765451	50.748386	42.610889
198.5	38.831449	41.750007	50.585058	42.532358
199	38.851942	41.695269	50.435476	42.496042
199.5	38.829628	41.640983	50.278883	42.427492
200	38.839419	41.607592	50.11257	42.400252