!#Experiment  Id= 1.1:
!Initial Temp=850 C
!Cylinder(25,100)
!Quenchant=Aquatensid BW (5%)
!t	t1	t2	t3	t4
0	848.017526	850.316531	850.388496	848.45737
0.5	847.902862	850.275376	850.385507	848.461047
1	847.787051	850.246637	850.362285	848.477823
1.5	847.623682	850.152143	850.326648	848.431171
2	847.399892	850.099954	850.317221	848.449556
2.5	847.163938	850.020637	850.301127	848.415313
3	846.888024	849.9027	850.281124	848.393022
3.5	846.552863	849.801087	850.240889	848.381991
4	846.181207	849.63465	850.220427	848.309831
4.5	845.758369	849.45121	850.168467	848.255826
5	845.20973	849.185488	850.144096	848.160229
5.5	844.579883	848.950123	850.076274	848.073825
6	843.856468	848.620542	850.008453	847.927678
6.5	842.973891	848.256975	849.905228	847.763384
7	841.971721	847.860352	849.788443	847.523504
7.5	840.686714	847.326371	849.700397	847.314424
8	839.318858	846.63556	849.567986	847.06446
8.5	837.75591	845.837375	849.380181	846.723771
9	836.017792	844.895139	849.110326	846.288934
9.5	834.280849	843.793568	848.841179	845.754694
10	832.500435	842.548393	848.492991	845.062305
10.5	830.784849	841.221455	848.137249	844.241462
11	829.015285	839.751368	847.725701	843.261483
11.5	827.300426	838.27125	847.192197	842.242951
12	825.514032	836.77263	846.556309	841.108583
12.5	823.661449	835.374659	845.839901	839.830949
13	821.834794	833.883482	845.077231	838.430128
13.5	820.033347	832.363757	844.181082	836.848946
14	818.214636	830.880509	843.20433	835.205358
14.5	816.366594	829.537566	842.256949	833.407837
15	814.632658	828.198708	841.226961	831.563929
15.5	812.811231	826.742754	840.099289	829.909355
16	811.06871	825.475862	838.994849	828.077035
16.5	808.475835	824.178729	837.806112	826.323234
17	800.28618	822.827171	836.561335	824.667964
17.5	789.213814	821.49294	835.329069	822.947322
18	776.102658	820.108678	834.098766	821.214818
18.5	762.517647	816.11435	832.934306	819.48941
19	746.275566	807.833664	831.831742	817.711313
19.5	731.987275	799.285146	830.524653	816.01446
20	717.149254	792.021959	828.824737	813.100428
20.5	698.505721	785.067243	826.572884	806.312052
21	670.667343	776.88798	823.756035	796.068225
21.5	614.796346	768.273087	820.45042	785.830838
22	544.316059	760.482206	816.566622	774.969329
22.5	483.132506	754.280856	812.331329	763.154798
23	433.244601	748.294555	807.594668	752.235849
23.5	393.174749	741.469207	802.493318	741.059521
24	356.232064	730.776698	797.152755	729.318821
24.5	325.123307	720.18017	791.60128	716.907193
25	301.660815	710.31812	785.882927	705.152431
25.5	282.26832	700.907488	779.958514	690.587354
26	265.587265	694.495499	773.849163	675.867935
26.5	250.800774	687.122786	767.484097	661.281811
27	237.671727	679.690059	760.922235	647.78566
27.5	225.845989	673.235624	754.270511	631.105165
28	215.187985	664.761705	747.552599	615.818806
28.5	205.898344	657.614417	740.811306	598.421363
29	197.036762	648.032168	734.029178	576.980451
29.5	188.186773	629.925397	727.12938	537.127702
30	180.749919	583.302405	720.032832	488.562218
30.5	173.359271	521.403659	712.525608	443.61221
31	166.307343	454.647472	704.377748	410.882079
31.5	159.825111	405.057856	695.207819	379.890767
32	153.618153	368.81134	684.496135	352.945501
32.5	147.443842	340.343204	671.903564	331.323213
33	141.854792	317.403132	657.287667	312.167619
33.5	137.257079	298.018974	640.543911	295.478128
34	132.481371	281.027315	621.82842	280.710585
34.5	127.916014	266.223437	601.406751	267.614144
35	123.463567	253.227077	579.76891	256.030493
35.5	119.54039	241.306834	557.298674	245.576696
36	115.597102	230.479567	534.450968	236.065581
36.5	111.319066	220.748081	511.650113	227.345161
37	107.37929	212.069609	489.285593	219.442311
37.5	103.832775	204.352534	467.531974	212.177823
38	100.603311	196.996471	446.63328	205.287613
38.5	97.452378	190.380118	426.613504	198.912739
39	94.579672	184.19416	407.548767	192.965352
39.5	91.720574	178.458866	389.442921	187.469919
40	88.923104	172.931799	372.307568	182.198165
40.5	86.336163	167.89018	356.144362	177.163833
41	83.863782	163.141365	340.919825	172.581879
41.5	81.413676	158.282366	326.507883	168.367511
42	79.09716	153.491225	312.925646	164.795747
42.5	77.068896	149.195828	300.146175	161.003549
43	75.178867	145.710512	288.172359	157.735349
43.5	73.41704	142.020722	276.836601	153.853032
44	71.943072	138.315439	266.136107	150.396154
44.5	70.563586	134.700536	256.071836	147.21327
45	69.136629	130.922391	246.554605	144.162634
45.5	67.815924	127.540462	237.560079	141.424589
46	66.493974	124.394001	228.995276	138.623028
46.5	65.197153	121.05413	220.938711	135.235361
47	64.047353	118.007519	213.30135	132.142228
47.5	62.955444	114.482577	206.048806	128.865772
48	61.811101	111.2033	199.195398	125.582136
48.5	60.696794	108.44322	192.671317	122.214651
49	59.662586	105.95293	186.422357	119.201252
49.5	58.61018	102.853964	180.437915	116.28243
50	57.661304	100.027799	174.662107	113.517566
50.5	56.803709	97.718965	169.176428	110.83974
51	55.970256	95.432042	163.855876	108.424673
51.5	55.227102	93.274596	158.765901	105.926953
52	54.549815	91.263647	153.889401	103.483063
52.5	53.895908	89.142414	149.193516	101.286247
53	53.327788	87.309663	144.695162	99.273675
53.5	52.755646	85.682592	140.374926	97.261625
54	52.23942	84.063995	136.236529	95.30146
54.5	51.713786	82.423102	132.287371	93.471775
55	51.206468	80.799902	128.512212	91.707332
55.5	50.724248	79.222259	124.886922	90.103023
56	50.271662	77.742194	121.420069	88.555826
56.5	49.885749	76.334087	118.098947	87.090021
57	49.50109	74.879043	114.897063	85.614709
57.5	49.153591	73.27898	111.844978	84.180454
58	48.860216	71.885336	108.922361	82.783796
58.5	48.518435	70.589996	106.128003	81.366891
59	48.202783	69.452488	103.470655	79.976913
59.5	47.849765	68.495458	100.904081	78.598346
60	47.485804	67.252075	98.462199	77.305857
60.5	47.17964	66.092137	96.106195	75.989287
61	46.901002	65.017906	93.873816	74.772315
61.5	46.617781	64.164569	91.721696	73.548386
62	46.395823	63.380507	89.64612	72.350347
62.5	46.160474	62.720468	87.651479	71.271482
63	45.921235	61.75054	85.782962	70.182869
63.5	45.674933	60.792383	83.930519	69.124317
64	45.505121	59.772357	82.180189	68.174397
64.5	45.309922	58.804442	80.484528	67.273126
65	45.126472	58.016957	78.894186	66.432603
65.5	44.933707	57.311433	77.334946	65.608938
66	44.769007	56.638036	75.814091	64.827671
66.5	44.60134	56.03502	74.372473	64.082092
67	44.412575	55.422816	73.003529	63.368177
67.5	44.233981	54.826836	71.691762	62.694234
68	44.078483	54.325871	70.420568	62.024621
68.5	43.93929	53.799546	69.228635	61.361801
69	43.832504	53.329139	68.064686	60.732921
69.5	43.716865	52.844183	66.969454	60.096927
70	43.606885	52.396491	65.909348	59.499604
70.5	43.47603	51.934474	64.879656	58.946366
71	43.342893	51.518093	63.908167	58.409388
71.5	43.239004	51.083108	62.976519	57.879241
72	43.136467	50.660182	62.05759	57.342894
72.5	43.002158	50.272339	61.213288	56.830009
73	42.922973	49.896358	60.41674	56.309571
73.5	42.814056	49.490028	59.594117	55.815306
74	42.756189	49.092391	58.865075	55.371303
74.5	42.672903	48.736434	58.118722	54.932142
75	42.610264	48.386263	57.408513	54.491074
75.5	42.526513	48.042106	56.739869	54.010726
76	42.457283	47.68769	56.102706	53.569876
76.5	42.383056	47.445785	55.476578	53.163148
77	42.304057	47.184389	54.871389	52.844183
77.5	42.283398	46.938097	54.298185	52.532366
78	42.193267	46.71506	53.762171	52.195023
78.5	42.152854	46.444471	53.220808	51.884884
79	42.100632	46.180842	52.691887	51.535454
79.5	42.035238	45.918066	52.19322	51.186848
80	42.006173	45.683083	51.742641	50.831847
80.5	41.950539	45.465947	51.275247	50.55054
81	41.905575	45.277311	50.818765	50.276401
81.5	41.855387	45.101104	50.412461	50.040578
82	41.826317	44.919435	50.012141	49.803137
82.5	41.779078	44.74046	49.63361	49.55866
83	41.732063	44.578454	49.261078	49.29382
83.5	41.713893	44.444302	48.912843	49.030963
84	41.662334	44.304923	48.570848	48.777997
84.5	41.653475	44.177315	48.225154	48.527923
85	41.60055	44.046293	47.920738	48.295204
85.5	41.550576	43.911177	47.631174	48.070355
86	41.547168	43.802802	47.349011	47.876211
86.5	41.507414	43.679224	47.075836	47.697411
87	41.499236	43.545882	46.800117	47.517909
87.5	41.456754	43.429536	46.535428	47.325947
88	41.46834	43.297301	46.291279	47.149337
88.5	41.415634	43.199759	46.057495	46.94443
89	41.402003	43.090867	45.840196	46.772746
89.5	41.387917	42.980604	45.608596	46.603981
90	41.372013	42.900736	45.421791	46.444245
90.5	41.335434	42.801121	45.194193	46.304856
91	41.346794	42.69537	45.017295	46.126752
91.5	41.311805	42.62842	44.820436	45.986651
92	41.297264	42.565098	44.64054	45.840422
92.5	41.27636	42.493374	44.495517	45.71659
93	41.260228	42.422327	44.309909	45.564897
93.5	41.252275	42.370798	44.143087	45.442851
94	41.229099	42.279766	44.017503	45.307884
94.5	41.204558	42.200305	43.857217	45.194193
95	41.205694	42.139458	43.715958	45.091137
95.5	41.197287	42.077472	43.58965	44.984676
96	41.160702	42.006854	43.45267	44.838107
96.5	41.164793	41.954399	43.345161	44.746124
97	41.130707	41.894902	43.233786	44.65912
97.5	41.136161	41.847211	43.105841	44.556474
98	41.112527	41.798837	43.005788	44.454047
98.5	41.085257	41.752732	42.884399	44.355917
99	41.08503	41.705489	42.787506	44.268206
99.5	41.048215	41.658472	42.70581	44.162128
100	41.051851	41.606002	42.603909	44.078257