!#Experiment  Id= 3.2:
!Initial Temp=850 C
!Cylinder(75,220)
!Quenchant= H2O
!t	t1	t2	t3	t4
0	849.625837	851.299214	850.867119	849.002314
0.5	837.419771	851.25644	850.856081	838.988786
1	837.296687	851.269318	850.878616	838.984429
1.5	837.088116	851.262879	850.855392	839.042441
2	836.851137	851.201477	850.847343	839.013779
2.5	836.583004	851.193198	850.848033	839.099767
3	836.252331	851.11708	850.853092	839.158927
3.5	835.861653	851.027626	850.851712	839.225427
4	835.421753	851.00762	850.81791	839.300641
4.5	834.880189	850.926906	850.857231	839.403833
5	834.243643	850.789627	850.853782	839.457494
5.5	833.456053	850.656262	850.871948	839.586834
6	832.446761	850.500368	850.873558	839.661826
6.5	831.361491	850.285161	850.917708	839.701959
7	830.082919	850.075482	850.856081	839.818463
7.5	828.869927	849.857768	850.903221	839.858828
8	827.562151	849.497312	850.920237	839.94231
8.5	826.266438	849.121257	850.828258	840.001253
9	824.953752	848.571488	850.898852	840.017996
9.5	823.55694	847.976062	850.77606	840.021895
10	822.205579	847.132362	850.897012	840.027628
10.5	820.87063	846.143896	850.911499	840.03405
11	819.75522	845.14533	850.919318	839.932448
11.5	818.403696	843.993188	850.996582	839.903779
12	817.201789	842.939822	850.942083	839.762275
12.5	816.017324	841.83211	850.932655	839.551059
13	814.762053	840.738684	850.931045	839.297201
13.5	813.642996	839.684988	850.998421	839.030059
14	812.558411	838.594184	850.966688	838.615278
14.5	811.340604	837.552028	851.016588	838.12924
15	808.274035	836.567879	850.982095	837.498162
15.5	801.040985	835.627721	850.977266	836.721652
16	788.449302	834.725568	850.943922	835.768857
16.5	768.399987	833.805515	850.95335	834.655474
17	743.31841	832.933975	850.935874	833.269426
17.5	707.746088	832.073374	850.933345	831.68995
18	656.379995	831.21066	850.925986	830.128682
18.5	605.70383	830.381989	850.987384	828.53757
19	552.8842	829.453044	850.95427	827.079213
19.5	502.350438	822.737072	851.085346	825.608787
20	458.711356	803.708523	851.18147	824.261115
20.5	422.35218	784.487289	851.095464	822.884404
21	392.193985	765.429849	851.18285	821.599479
21.5	367.524113	746.203184	851.218955	820.342338
22	346.834691	728.229802	851.372116	819.002723
22.5	329.338241	711.99884	851.372346	817.780341
23	314.508506	699.037546	851.416961	816.547589
23.5	301.677326	684.97821	851.445709	815.264117
24	290.268987	672.371045	851.496535	812.423057
24.5	280.17415	660.430048	851.469857	804.890732
25	271.137318	642.524978	851.480666	793.05933
25.5	262.885669	622.534451	851.535402	776.433619
26	255.224181	599.882545	851.498605	755.006037
26.5	247.604448	568.138468	851.546211	731.899673
27	239.889265	514.248797	851.533562	705.732366
27.5	232.742401	456.086201	851.466407	672.242092
28	225.994337	409.07121	851.42915	632.620212
28.5	219.904711	373.950054	851.339689	589.692234
29	214.138042	347.444744	851.217805	549.539639
29.5	208.691802	326.739364	851.053841	514.061239
30	203.100978	310.495407	850.843204	480.640689
30.5	197.609094	297.468255	850.570266	449.126701
31	192.432393	286.813954	850.266767	420.548282
31.5	188.211839	277.824899	849.912023	395.383163
32	184.081495	270.082671	849.489727	373.325714
32.5	180.173114	263.412828	848.98128	353.541137
33	176.759343	257.560027	848.45405	335.70701
33.5	173.093974	252.397367	847.82854	319.470544
34	168.888059	247.688121	847.131902	304.624941
34.5	165.173375	243.4657	846.279874	291.265539
35	161.930511	239.616943	845.354991	279.201362
35.5	159.205778	236.029315	844.343986	268.23604
36	156.727537	232.652447	843.189768	258.398055
36.5	154.439522	229.568621	841.9629	249.443409
37	151.982353	226.683996	840.575819	241.390857
37.5	149.364753	223.961611	839.054136	234.129599
38	146.947277	221.424974	837.418855	227.516539
38.5	144.662292	219.029004	835.66415	221.548175
39	142.184489	216.73956	833.76269	216.049985
39.5	140.120609	214.584563	831.73161	210.986968
40	138.500989	212.548551	829.556682	206.365192
40.5	136.72158	210.627373	827.267854	202.156443
41	134.933038	208.722481	824.827602	198.222471
41.5	133.218475	206.984621	822.281176	194.49705
42	131.657027	205.318211	819.588596	191.053916
42.5	130.413238	203.743143	816.790964	187.746445
43	128.874825	202.213925	813.876859	184.620303
43.5	127.393319	200.791614	810.862689	181.653005
44	125.841326	199.451868	807.73728	179.014422
44.5	124.434077	198.132587	804.524299	176.608634
45	122.798754	196.977271	801.185981	174.34809
45.5	121.168177	195.933134	797.819808	172.266097
46	119.806412	194.877929	794.324635	170.124762
46.5	118.521028	193.754821	790.781481	167.806805
47	117.126813	192.777458	787.158061	165.683425
47.5	116.150558	191.808645	783.473352	163.911081
48	115.242292	190.906647	779.75464	162.289141
48.5	114.084427	189.930035	775.952516	160.670256
49	112.683127	188.93334	772.103079	159.097634
49.5	111.281584	187.944535	768.176668	157.700916
50	110.078102	186.999755	764.23387	156.292091
50.5	109.173192	186.052401	760.245895	154.982209
51	108.385442	185.183119	756.204072	153.694488
51.5	107.548744	184.411724	752.164496	152.495366
52	106.939098	183.51403	748.070104	151.193589
52.5	106.428163	182.659703	743.975993	149.900122
53	106.073007	181.864128	739.830135	148.651961
53.5	105.620349	181.086759	735.71753	147.229109
54	105.114512	180.360685	731.543187	145.933207
54.5	104.208403	179.582455	727.364032	144.835136
55	103.296852	178.768391	723.163966	143.955371
55.5	102.368359	177.928523	718.995019	143.150449
56	101.456071	177.242233	714.795755	142.363815
56.5	100.739059	176.437663	710.587832	141.658588
57	99.88987	175.658319	706.398397	140.88427
57.5	99.050699	175.023206	702.18755	139.900271
58	98.424516	174.331091	697.980198	138.907323
58.5	97.819884	173.709129	693.783177	137.930747
59	97.174477	173.049504	689.594643	137.116964
59.5	96.477084	172.312889	685.391472	136.249066
60	95.956592	171.551688	681.211093	135.342518
60.5	95.387216	170.902533	677.060708	134.396005
61	94.793031	170.309769	672.909892	133.545198
61.5	94.353551	169.608405	668.755058	132.853964
62	93.923133	168.933892	664.596819	132.15703
62.5	93.476617	168.412771	660.49936	131.579551
63	92.985941	167.783313	656.397201	131.170453
63.5	92.501641	167.043006	652.287644	130.727311
64	91.955475	166.287708	648.247084	130.06624
64.5	91.287783	165.636463	644.184615	129.401064
65	90.589734	165.00159	640.153019	128.638881
65.5	89.875024	164.496971	636.115885	127.803833
66	89.114731	164.154165	632.139965	127.023595
66.5	88.381296	163.67266	628.171924	126.458758
67	87.639948	162.849456	624.197184	126.059527
67.5	86.884859	162.183685	620.259566	125.749028
68	86.302453	161.526399	616.342706	125.321639
68.5	85.839547	161.021093	612.465786	124.78544
69	85.547849	160.554866	608.552627	124.174083
69.5	85.35205	160.235417	604.686213	123.608806
70	85.182022	159.744	600.843628	123.039608
70.5	85.001025	159.128963	597.045554	122.441185
71	84.589104	158.619384	593.23277	121.775729
71.5	83.960877	157.913631	589.481552	121.029423
72	83.468879	157.252106	585.734014	120.313502
72.5	83.228607	156.360487	582.018704	119.68302
73	82.804296	155.658979	578.328511	119.061646
73.5	82.224865	155.28071	574.635348	118.429805
74	81.680189	154.52919	570.992005	117.792056
74.5	81.253525	154.042886	567.366896	117.09999
75	80.871877	153.610638	563.796624	116.415019
75.5	80.44347	153.361421	560.211166	115.98654
76	80.096329	152.792663	556.666788	115.770977
76.5	79.859091	152.387939	553.1529	115.442574
77	79.509736	151.924946	549.678141	115.059742
77.5	79.025673	151.632146	546.202216	114.64953
78	78.555281	151.136432	542.779864	114.194256
78.5	78.103033	150.477483	539.381501	113.750445
79	77.736053	150.039823	535.983216	113.312643
79.5	77.408464	149.348566	532.626216	112.844793
80	77.101018	148.812164	529.271293	112.420366
80.5	76.671855	148.430052	525.962951	111.899268
81	76.181166	148.083362	522.668099	111.280678
81.5	75.616868	147.7358	519.393208	110.54273
82	75.219267	147.248746	516.156139	109.666332
82.5	74.947188	146.505196	512.961423	108.846241
83	74.685625	145.792369	509.781855	108.083961
83.5	74.334784	144.952834	506.651524	107.368113
84	73.871167	144.147998	503.568859	106.848923
84.5	73.392775	143.371599	500.50182	106.592885
85	73.049972	142.902116	497.489901	106.365576
85.5	72.77228	142.827644	494.464467	106.251254
86	72.441324	142.505581	491.464927	106.033475
86.5	72.058219	141.601212	488.469642	105.775515
87	71.811164	141.065325	485.516892	105.649484
87.5	71.703971	140.394398	482.55954	105.615381
88	71.558285	139.613659	479.586368	105.51872
88.5	71.240051	138.974286	476.609925	105.237798
89	70.988276	138.285432	473.677941	104.738157
89.5	70.741194	137.413786	470.764959	104.218785
90	70.465232	136.709628	467.862528	103.520865
90.5	70.098163	136.295484	465.038797	102.689911
91	69.701305	135.729803	462.21319	101.901231
91.5	69.321884	135.015708	459.433427	101.292907
92	68.996392	134.365243	456.68852	100.833234
92.5	68.653196	133.87588	453.939433	100.46647
93	68.309307	133.49357	451.222898	100.042789
93.5	68.114517	133.471543	448.509712	99.591495
94	67.926885	133.310475	445.787965	99.161459
94.5	67.73611	132.925071	443.091325	98.57328
95	67.614969	132.847542	440.371056	97.892107
95.5	67.483525	132.365005	437.741755	97.306738
96	67.414778	131.827576	435.096372	96.883665
96.5	67.291165	131.272203	432.516675	96.513736
97	67.167998	130.723646	429.952837	96.248638
97.5	66.989063	130.185105	427.391207	96.082714
98	66.686268	129.47959	424.878746	95.854755
98.5	66.385019	128.909155	422.391514	95.510386
99	66.072549	127.986595	419.903346	95.044036
99.5	65.749078	127.741392	417.433564	94.551937
100	65.564481	127.343926	414.983484	94.083296
100.5	65.396903	127.004848	412.549811	93.759387
101	65.108103	126.423104	410.14488	93.411038
101.5	64.834742	125.570156	407.741844	93.091479
102	64.564049	124.634521	405.395346	92.847849
102.5	64.353172	124.26082	403.050122	92.61614
103	64.134437	123.865063	400.711465	92.404656
103.5	63.897309	123.217077	398.386006	92.214963
104	63.721581	122.709811	396.085241	92.036281
104.5	63.488457	122.462162	393.798167	91.778381
105	63.238278	122.06568	391.52812	91.470457
105.5	63.120355	121.767524	389.284188	91.242678
106	62.969918	121.102786	387.043866	91.105121
106.5	62.7475	120.175728	384.829055	90.975873
107	62.506004	119.834643	382.6033	90.841246
107.5	62.373251	119.343626	380.405983	90.667362
108	62.182408	118.454601	378.217445	90.390962
108.5	61.991328	117.638114	376.045012	89.947475
109	61.904755	116.954292	373.88007	89.452243
109.5	61.763002	116.32368	371.740802	89.145229
110	61.509532	116.054689	369.604191	88.773443
110.5	61.240335	115.806864	367.486207	88.423221
111	61.006783	114.975967	365.387316	88.194094
111.5	60.79363	114.312489	363.297335	88.071242
112	60.574175	113.710516	361.199856	87.899749
112.5	60.363677	113.217838	359.143921	87.585928
113	60.116578	112.8813	357.072068	87.21924
113.5	59.920183	112.346918	355.029582	86.919596
114	59.723995	112.106193	353.01182	86.636558
114.5	59.569997	111.947087	351.019245	86.280269
115	59.403416	111.935529	349.014753	85.934319
115.5	59.221106	111.715254	347.053907	85.73111
116	59.104348	111.227213	345.104492	85.566219
116.5	59.005099	110.862289	343.209441	85.295598
117	58.863403	110.632409	341.299364	84.973249
117.5	58.668473	110.044822	339.396939	84.727303
118	58.463419	109.373238	337.522423	84.527957
118.5	58.31787	108.964344	335.657787	84.329964
119	58.158384	108.681996	333.809485	84.023584
119.5	57.969231	108.490169	331.961026	83.564946
120	57.740743	108.227345	330.138254	83.228831
120.5	57.641881	107.525458	328.332926	82.925876
121	57.394705	106.860675	326.516039	82.7322
121.5	57.191999	106.358798	324.721709	82.562262
122	56.937576	105.532722	322.936992	82.398823
122.5	56.72336	104.697974	321.155402	82.135314
123	56.541493	104.213143	319.394127	81.761899
123.5	56.387939	103.944596	317.622994	81.305009
124	56.25281	103.631865	315.881775	80.755036
124.5	56.13746	103.450703	314.160643	80.253895
125	55.994668	103.21384	312.430283	79.854168
125.5	55.805536	103.141208	310.724472	79.529878
126	55.667667	103.128803	309.027766	79.310782
126.5	55.472879	102.825898	307.337242	79.156589
127	55.319238	102.376927	305.676207	78.984943
127.5	55.256249	101.866516	303.993762	78.743256
128	55.10259	101.561774	302.339678	78.512316
128.5	55.004043	101.375389	300.717122	78.199702
129	54.912917	101.197359	299.099835	77.939905
129.5	54.786457	100.869959	297.497474	77.652365
130	54.672366	100.175447	295.879009	77.416967
130.5	54.575596	99.544435	294.282873	77.206185
131	54.477696	98.853506	292.701203	76.926935
131.5	54.363135	98.287463	291.12297	76.705641
132	54.240012	97.486697	289.584221	76.485021
132.5	54.12521	96.81957	288.029085	76.277602
133	53.998694	96.224131	286.480534	76.009325
133.5	53.846277	95.528367	284.949624	75.692272
134	53.728297	94.914373	283.419657	75.349265
134.5	53.620892	94.35445	281.914127	75.047204
135	53.498842	94.15271	280.424242	74.916087
135.5	53.350435	93.944922	278.9464	74.763937
136	53.195482	93.864731	277.453446	74.445317
136.5	53.089845	93.427208	275.978187	74.138777
137	52.929462	93.309979	274.52087	73.952166
137.5	52.787086	92.907351	273.074717	73.766226
138	52.663624	92.428902	271.6234	73.54784
138.5	52.500721	92.056708	270.204367	73.254491
139	52.390757	91.564492	268.794267	73.015065
139.5	52.287547	91.134741	267.389702	72.749008
140	52.215882	90.502237	265.979077	72.468624
140.5	52.14196	89.978654	264.602203	72.210388
141	52.010334	89.618882	263.215641	71.961099
141.5	51.896505	89.284268	261.837145	71.708894
142	51.783119	89.012924	260.474931	71.492938
142.5	51.696327	88.943634	259.10713	71.27653
143	51.624184	88.630166	257.778692	71.130838
143.5	51.549333	88.14298	256.424143	71.022294
144	51.442911	87.694866	255.1177	70.845489
144.5	51.394207	87.153796	253.80709	70.668456
145	51.333777	86.80956	252.497796	70.475751
145.5	51.231399	86.606082	251.180436	70.334746
146	51.094059	86.399701	249.86439	70.120098
146.5	50.94588	86.284975	248.576471	69.915293
147	50.791822	85.96255	247.289904	69.795989
147.5	50.659405	85.690334	246.018459	69.599457
148	50.502159	85.520069	244.740358	69.36464
148.5	50.349409	85.309487	243.463404	69.091534
149	50.194162	84.946145	242.200239	68.779462
149.5	50.086291	84.559314	240.942385	68.434238
150	49.973673	84.09749	239.712627	68.146759
150.5	49.900546	83.694158	238.48846	67.944573
151	49.810712	83.390728	237.257235	67.729841
151.5	49.714777	83.106796	236.021252	67.488451
152	49.640734	82.757948	234.825682	67.256231
152.5	49.549078	82.335015	233.616405	67.055352
153	49.445902	82.140015	232.397099	66.854241
153.5	49.420163	81.936962	231.219916	66.628707
154	49.3732	81.653326	230.018425	66.462741
154.5	49.309977	81.265165	228.85774	66.275041
155	49.20859	80.975289	227.682463	66.095173
155.5	49.087323	80.949995	226.516856	65.892448
156	48.979822	80.960963	225.366261	65.593829
156.5	48.859213	80.742949	224.18281	65.309526
157	48.727751	80.544862	223.057901	65.1267
157.5	48.629937	80.369833	221.9152	64.991143
158	48.551093	79.889081	220.79361	64.84998
158.5	48.470664	79.358226	219.660724	64.634414
159	48.421862	79.016945	218.552004	64.429367
159.5	48.355434	78.718864	217.438501	64.223188
160	48.257594	78.492847	216.340398	64.061373
160.5	48.177148	78.304204	215.229183	63.841274
161	48.084945	78.100124	214.161251	63.59202
161.5	48.019405	77.803183	213.058646	63.315396
162	47.949568	77.652813	211.978706	63.078431
162.5	47.886734	77.316722	210.916817	62.892342
163	47.823219	77.076853	209.85697	62.717902
163.5	47.777559	76.746365	208.805219	62.590317
164	47.671766	76.408273	207.73322	62.455325
164.5	47.60598	75.959653	206.710725	62.335353
165	47.533183	75.618435	205.674517	62.219412
165.5	47.466486	75.386631	204.644836	62.103466
166	47.384411	75.23202	203.628443	61.98146
166.5	47.323812	75.06667	202.613954	61.898923
167	47.259593	74.836432	201.592999	61.687861
167.5	47.209391	74.486487	200.60516	61.458387
168	47.122777	74.247297	199.614607	61.250654
168.5	47.041811	73.948586	198.633923	61.036848
169	46.905878	73.630406	197.661957	60.815619
169.5	46.799791	73.474671	196.677062	60.67448
170	46.727402	73.346233	195.715114	60.57799
170.5	46.643246	73.141939	194.749107	60.505731
171	46.583745	73.061384	193.793728	60.350886
171.5	46.466545	72.921755	192.84922	60.164384
172	46.336889	72.47668	191.920488	60.010639
172.5	46.267417	72.156011	190.967466	59.91704
173	46.172821	71.942525	190.040026	59.843416
173.5	46.088176	71.830186	189.104624	59.743749
174	46.046078	71.672865	188.181077	59.646773
174.5	45.988814	71.336507	187.267063	59.52622
175	45.915249	71.078916	186.361195	59.375576
175.5	45.852999	70.73157	185.451594	59.28779
176	45.775125	70.373243	184.541998	59.155543
176.5	45.717396	70.139347	183.644301	58.914828
177	45.679587	69.96476	182.759909	58.647138
177.5	45.63725	69.823745	181.876479	58.414679
178	45.588344	69.579534	180.965356	58.231838
178.5	45.518606	69.184436	180.089698	58.004727
179	45.459054	68.879309	179.197085	57.78096
179.5	45.405613	68.545061	178.357186	57.623906
180	45.313672	68.221317	177.483105	57.495602
180.5	45.247769	68.02406	176.632627	57.395829
181	45.185033	67.84247	175.765457	57.285489
181.5	45.119576	67.646095	174.90979	57.100078
182	45.047774	67.477702	174.075873	56.939824
182.5	44.969851	67.379172	173.239957	56.739545
183	44.89872	67.18233	172.399723	56.527555
183.5	44.842764	66.857376	171.567749	56.351741
184	44.76211	66.661407	170.734495	56.242467
184.5	44.695272	66.49589	169.899039	56.121945
185	44.613929	66.40809	169.069764	55.947218
185.5	44.547763	66.416825	168.276916	55.755832
186	44.506068	66.34739	167.448613	55.589169
186.5	44.434004	66.139077	166.642552	55.377727
187	44.385279	65.9993	165.824549	55.149836
187.5	44.337686	65.876543	165.033436	54.972543
188	44.281024	65.687248	164.256887	54.860489
188.5	44.210534	65.465907	163.463995	54.800634
189	44.127573	65.288466	162.658958	54.748427
189.5	44.081556	65.118858	161.892188	54.656388
190	43.99904	64.977699	161.116761	54.538012
190.5	43.940096	64.963583	160.339653	54.393745
191	43.865506	64.784773	159.564815	54.280079
191.5	43.793632	64.505785	158.805246	54.194768
192	43.771411	64.111129	158.060011	54.168431
192.5	43.711096	63.833654	157.252802	54.117106
193	43.645562	63.692441	156.453231	54.034264
193.5	43.581839	63.457522	155.638813	53.944663
194	43.534442	63.209806	154.881403	53.850555
194.5	43.465043	63.046371	154.131846	53.756442
195	43.394733	62.896378	153.399636	53.649489
195.5	43.308768	62.702879	152.665544	53.542079
196	43.221663	62.476404	151.923094	53.358542
196.5	43.148163	62.301715	151.223903	53.167328
197	43.070121	62.170074	150.494602	53.029253
197.5	43.012041	62.118716	149.787951	52.916622
198	42.936713	62.176802	149.072027	52.786636
198.5	42.883164	62.206405	148.349847	52.606621
199	42.829612	62.144732	147.664399	52.43898
199.5	42.799432	61.912156	146.965295	52.239996
200	42.748827	61.850477	146.276337	52.040537

